Time_abs/ps, Signal/nA, Ref.signal/nA
   885.000,    -1.704275,    -1.548700
   885.050,    -1.394008,    -1.334448
   885.100,    -0.589904,    -0.615985
   885.150,     0.827352,     0.790496
   885.200,     2.860834,     2.708637
   885.250,     5.366894,     5.123105
   885.300,     7.986825,     7.669522
   885.350,    10.182670,     9.928879
   885.400,    11.361198,    11.240477
   885.450,    11.033800,    11.070196
   885.500,     9.082237,     9.319082
   885.550,     5.841261,     6.347037
   885.600,     2.066064,     2.725178
   885.650,    -1.319436,    -0.631647
   885.700,    -3.618731,    -3.013355
   885.750,    -4.621267,    -4.110180
   885.800,    -4.547529,    -4.234729
   885.850,    -3.809285,    -3.620926
   885.900,    -2.717117,    -2.626907
   885.950,    -1.440443,    -1.380984
   886.000,    -0.107634,    -0.095200
   886.050,     1.072497,     1.045464
   886.100,     1.869014,     1.791293
   886.150,     2.186820,     2.090326
   886.200,     2.152668,     2.101946
   886.250,     1.981803,     1.939598
   886.300,     1.798396,     1.841834
   886.350,     1.602791,     1.670919
   886.400,     1.382167,     1.479987
   886.450,     1.189153,     1.371201
   886.500,     1.104077,     1.229978
   886.550,     1.134287,     1.321518
   886.600,     1.229812,     1.370674
   886.650,     1.332556,     1.508298
   886.700,     1.421200,     1.546679
   886.750,     1.481712,     1.572969
   886.800,     1.489675,     1.632422
   886.850,     1.439959,     1.543056
   886.900,     1.327487,     1.449874
   886.950,     1.171010,     1.241466
   887.000,     1.000471,     1.045391
   887.050,     0.837755,     0.937569
   887.100,     0.722994,     0.797525
   887.150,     0.651553,     0.679326
   887.200,     0.603633,     0.646288
   887.250,     0.565988,     0.675297
   887.300,     0.519379,     0.566391
   887.350,     0.458927,     0.555474
   887.400,     0.390631,     0.559911
   887.450,     0.321058,     0.412129
   887.500,     0.245858,     0.396636
   887.550,     0.174667,     0.302215
   887.600,     0.119058,     0.284327
   887.650,     0.081222,     0.188060
   887.700,     0.047192,     0.133740
   887.750,     0.015218,     0.142933
   887.800,    -0.023479,     0.076692
   887.850,    -0.063403,     0.015772
   887.900,    -0.109151,    -0.000885
   887.950,    -0.162197,    -0.067454
   888.000,    -0.215700,    -0.127528
   888.050,    -0.249543,    -0.190596
   888.100,    -0.260568,    -0.160177
   888.150,    -0.257205,    -0.169960
   888.200,    -0.251798,    -0.181961
   888.250,    -0.241392,    -0.175058
   888.300,    -0.223884,    -0.132578
   888.350,    -0.192257,    -0.065130
   888.400,    -0.151871,    -0.044129
   888.450,    -0.112840,    -0.037232
   888.500,    -0.073857,     0.053312
   888.550,    -0.041180,     0.100453
   888.600,    -0.019823,     0.123421
   888.650,    -0.016347,     0.105564
   888.700,    -0.038775,     0.086673
   888.750,    -0.070462,     0.070408
   888.800,    -0.091040,     0.015356
   888.850,    -0.090342,     0.002232
   888.900,    -0.070422,    -0.014236
   888.950,    -0.041960,     0.058002
   889.000,    -0.018713,     0.034833
   889.050,    -0.000330,     0.117397
   889.100,     0.020014,     0.088430
   889.150,     0.034493,     0.157838
   889.200,     0.055910,     0.186894
   889.250,     0.085519,     0.211586
   889.300,     0.117474,     0.264667
   889.350,     0.159271,     0.287596
   889.400,     0.209366,     0.320423
   889.450,     0.275067,     0.361681
   889.500,     0.367850,     0.458749
   889.550,     0.501688,     0.553144
   889.600,     0.680570,     0.731762
   889.650,     0.906781,     0.958887
   889.700,     1.175540,     1.214224
   889.750,     1.465529,     1.471104
   889.800,     1.759582,     1.810561
   889.850,     2.027300,     2.045349
   889.900,     2.260901,     2.333907
   889.950,     2.466839,     2.531002
   890.000,     2.676464,     2.690879
   890.050,     2.917368,     2.947756
   890.100,     3.205917,     3.267338
   890.150,     3.485947,     3.523217
   890.200,     3.631328,     3.690953
   890.250,     3.513351,     3.672165
   890.300,     3.028858,     3.236017
   890.350,     2.193487,     2.500926
   890.400,     1.149758,     1.546387
   890.450,     0.144310,     0.545008
   890.500,    -0.599362,    -0.249976
   890.550,    -0.988860,    -0.659736
   890.600,    -1.060823,    -0.754664
   890.650,    -0.943157,    -0.758604
   890.700,    -0.777770,    -0.538661
   890.750,    -0.616087,    -0.459718
   890.800,    -0.488599,    -0.340111
   890.850,    -0.408408,    -0.229910
   890.900,    -0.434618,    -0.168252
   890.950,    -0.610549,    -0.324788
   891.000,    -0.955089,    -0.698001
   891.050,    -1.411145,    -1.066772
   891.100,    -1.908069,    -1.619000
   891.150,    -2.425706,    -2.093932
   891.200,    -2.975302,    -2.628161
   891.250,    -3.574787,    -3.207397
   891.300,    -4.225686,    -3.862680
   891.350,    -4.900100,    -4.493450
   891.400,    -5.594804,    -5.134570
   891.450,    -6.333372,    -5.850107
   891.500,    -7.138293,    -6.566510
   891.550,    -8.010647,    -7.383414
   891.600,    -8.949241,    -8.353771
   891.650,    -9.963189,    -9.284939
   891.700,   -11.056521,   -10.423639
   891.750,   -12.214111,   -11.592042
   891.800,   -13.403634,   -12.821269
   891.850,   -14.603555,   -14.065604
   891.900,   -15.793314,   -15.241693
   891.950,   -16.976428,   -16.409398
   892.000,   -18.219845,   -17.683701
   892.050,   -19.610496,   -19.030137
   892.100,   -21.260586,   -20.607234
   892.150,   -23.256714,   -22.512774
   892.200,   -25.678289,   -24.823782
   892.250,   -28.506019,   -27.483085
   892.300,   -31.601330,   -30.468742
   892.350,   -34.767824,   -33.568053
   892.400,   -37.830482,   -36.610701
   892.450,   -40.701683,   -39.521292
   892.500,   -43.474941,   -42.467812
   892.550,   -46.327430,   -45.539788
   892.600,   -49.450984,   -49.011067
   892.650,   -52.942236,   -52.938250
   892.700,   -56.802538,   -57.240843
   892.750,   -60.964378,   -61.769098
   892.800,   -65.254664,   -66.362305
   892.850,   -69.265972,   -70.463852
   892.900,   -72.227422,   -73.507593
   892.950,   -72.777793,   -74.165017
   893.000,   -68.850255,   -70.830085
   893.050,   -57.663424,   -60.824913
   893.100,   -35.806936,   -41.180224
   893.150,     0.598664,    -8.196980
   893.200,    55.186840,    41.906803
   893.250,   130.074680,   111.566504
   893.300,   223.987256,   200.504662
   893.350,   329.931540,   303.242065
   893.400,   433.423080,   407.121436
   893.450,   512.862369,   492.056472
   893.500,   543.214765,   533.966691
   893.550,   503.501602,   510.616573
   893.600,   386.364642,   411.761045
   893.650,   205.050628,   246.581311
   893.700,    -6.756786,    44.085726
   893.750,  -204.618969,  -153.466318
   893.800,  -349.247194,  -306.988873
   893.850,  -421.473695,  -393.712581
   893.900,  -426.497615,  -413.961354
   893.950,  -384.656539,  -384.605532
   894.000,  -316.755675,  -325.200347
   894.050,  -235.577859,  -249.406469
   894.100,  -148.696255,  -165.743223
   894.150,   -65.982707,   -84.322070
   894.200,    -1.153484,   -18.540582
   894.250,    35.646952,    21.006908
   894.300,    45.740310,    34.466569
   894.350,    40.528587,    32.187993
   894.400,    31.269046,    25.683210
   894.450,    21.691909,    19.247780
   894.500,    10.446446,    11.303266
   894.550,    -1.744185,     1.554176
   894.600,   -10.141661,    -5.991661
   894.650,   -11.009889,    -6.902406
   894.700,    -5.778300,    -1.831826
   894.750,     1.049401,     5.006166
   894.800,     6.486033,    10.019753
   894.850,    10.147784,    12.667583
   894.900,    12.164811,    13.779981
   894.950,    11.820360,    12.808889
   895.000,     8.560516,     9.124970
   895.050,     2.978952,     3.097635
   895.100,    -3.422562,    -3.924776
   895.150,    -9.000693,   -10.225396
   895.200,   -12.499592,   -14.580208
   895.250,   -13.511098,   -16.155353
   895.300,   -12.729594,   -15.421945
   895.350,   -11.385041,   -13.402622
   895.400,   -10.448582,   -11.323128
   895.450,   -10.294935,    -9.999519
   895.500,   -10.849096,    -9.421870
   895.550,   -11.864196,    -9.739180
   895.600,   -13.078250,   -10.626557
   895.650,   -14.192409,   -11.854709
   895.700,   -14.731296,   -13.067109
   895.750,   -14.243973,   -13.619413
   895.800,   -12.850371,   -13.215559
   895.850,   -11.133079,   -12.113329
   895.900,    -9.430673,   -10.697637
   895.950,    -7.681099,    -8.987088
   896.000,    -5.979460,    -7.133417
   896.050,    -4.729981,    -5.606401
   896.100,    -3.987395,    -4.539400
   896.150,    -3.213655,    -3.689754
   896.200,    -1.940248,    -2.387888
   896.250,    -0.327708,    -0.642016
   896.300,     1.180657,     0.930320
   896.350,     2.412472,     2.221015
   896.400,     3.657295,     3.404833
   896.450,     5.415212,     4.984969
   896.500,     7.854011,     7.315015
   896.550,    10.590797,    10.108389
   896.600,    13.035015,    12.756163
   896.650,    14.733806,    14.887528
   896.700,    15.310156,    15.976682
   896.750,    14.246976,    15.401837
   896.800,    11.283496,    12.801048
   896.850,     7.088576,     8.532533
   896.900,     3.180801,     4.149594
   896.950,     0.987833,     1.215248
   897.000,     0.860367,     0.366227
   897.050,     2.013790,     1.055890
   897.100,     3.245082,     2.111996
   897.150,     3.700600,     2.783805
   897.200,     3.164997,     2.715922
   897.250,     1.890810,     2.209670
   897.300,     0.287083,     1.307740
   897.350,    -1.299362,     0.306856
   897.400,    -2.634983,    -0.747739
   897.450,    -3.599225,    -1.857346
   897.500,    -4.232224,    -2.953928
   897.550,    -4.645582,    -3.936881
   897.600,    -4.837314,    -4.700610
   897.650,    -4.652614,    -5.013130
   897.700,    -3.937508,    -4.692568
   897.750,    -2.761661,    -3.624092
   897.800,    -1.394297,    -2.161166
   897.850,    -0.146392,    -0.517133
   897.900,     0.844904,     0.968217
   897.950,     1.539733,     2.062493
   898.000,     1.850179,     2.616219
   898.050,     1.613561,     2.555143
   898.100,     0.865952,     1.842607
   898.150,    -0.061519,     0.753116
   898.200,    -0.809288,    -0.236074
   898.250,    -1.263234,    -0.919705
   898.300,    -1.565760,    -1.389663
   898.350,    -1.879181,    -1.686717
   898.400,    -2.227515,    -2.080572
   898.450,    -2.534836,    -2.376697
   898.500,    -2.768949,    -2.622322
   898.550,    -2.921760,    -2.828715
   898.600,    -2.962404,    -2.778144
   898.650,    -2.817770,    -2.628945
   898.700,    -2.525144,    -2.389258
   898.750,    -2.344076,    -2.336217
   898.800,    -2.541533,    -2.656895
   898.850,    -3.070101,    -3.406488
   898.900,    -3.541600,    -3.992852
   898.950,    -3.596396,    -3.963253
   899.000,    -3.248588,    -3.279501
   899.050,    -2.764622,    -2.266839
   899.100,    -2.359210,    -1.596687
   899.150,    -2.019802,    -1.199536
   899.200,    -1.662412,    -0.984123
   899.250,    -1.330488,    -0.814294
   899.300,    -1.182979,    -0.809920
   899.350,    -1.314762,    -1.013061
   899.400,    -1.680572,    -1.442402
   899.450,    -2.145443,    -1.955917
   899.500,    -2.563748,    -2.360734
   899.550,    -2.826561,    -2.584414
   899.600,    -2.805919,    -2.566494
   899.650,    -2.414136,    -2.168061
   899.700,    -1.743072,    -1.507173
   899.750,    -1.135053,    -0.862764
   899.800,    -0.987360,    -0.657789
   899.850,    -1.424750,    -1.174453
   899.900,    -2.168901,    -2.199780
   899.950,    -2.763930,    -3.061573
   900.000,    -2.942898,    -3.345662
   900.050,    -2.826841,    -3.049283
   900.100,    -2.716044,    -2.722116
   900.150,    -2.782354,    -2.583776
   900.200,    -2.955587,    -2.709944
   900.250,    -3.083565,    -2.732885
   900.300,    -3.155632,    -2.688539
   900.350,    -3.277018,    -2.808521
   900.400,    -3.490848,    -3.208130
   900.450,    -3.715989,    -3.632463
   900.500,    -3.870414,    -3.952271
   900.550,    -3.985771,    -4.143905
   900.600,    -4.168538,    -4.287666
   900.650,    -4.454857,    -4.626202
   900.700,    -4.717829,    -4.981307
   900.750,    -4.735236,    -5.128548
   900.800,    -4.341733,    -4.672077
   900.850,    -3.541109,    -3.632952
   900.900,    -2.573004,    -2.406139
   900.950,    -1.764695,    -1.349050
   901.000,    -1.382866,    -0.904421
   901.050,    -1.445587,    -0.952522
   901.100,    -1.773943,    -1.524216
   901.150,    -2.103862,    -2.027464
   901.200,    -2.280336,    -2.449067
   901.250,    -2.266073,    -2.530537
   901.300,    -2.075817,    -2.360519
   901.350,    -1.765012,    -1.996015
   901.400,    -1.437329,    -1.588238
   901.450,    -1.169436,    -1.338044
   901.500,    -0.917771,    -1.040771
   901.550,    -0.588896,    -0.601916
   901.600,    -0.187429,    -0.020159
   901.650,     0.068425,     0.451315
   901.700,    -0.138197,     0.446841
   901.750,    -0.924296,    -0.404646
   901.800,    -2.068610,    -1.734122
   901.850,    -3.156228,    -3.063439
   901.900,    -3.891122,    -3.832966
   901.950,    -4.298513,    -4.129269
   902.000,    -4.579429,    -4.230611
   902.050,    -4.905977,    -4.432638
   902.100,    -5.304171,    -4.848088
   902.150,    -5.718869,    -5.290763
   902.200,    -6.097155,    -5.748671
   902.250,    -6.371310,    -6.103564
   902.300,    -6.435350,    -6.273801
   902.350,    -6.206563,    -6.154244
   902.400,    -5.675443,    -5.799039
   902.450,    -4.903560,    -5.230227
   902.500,    -3.930191,    -4.507588
   902.550,    -2.751508,    -3.452993
   902.600,    -1.408211,    -2.184052
   902.650,    -0.064007,    -0.595820
   902.700,     0.967965,     0.763113
   902.750,     1.363899,     1.580349
   902.800,     1.033427,     1.567952
   902.850,     0.221946,     0.922916
   902.900,    -0.650812,    -0.000108
   902.950,    -1.274057,    -0.723520
   903.000,    -1.575742,    -1.224745
   903.050,    -1.635095,    -1.482715
   903.100,    -1.569435,    -1.522590
   903.150,    -1.505474,    -1.498279
   903.200,    -1.575438,    -1.472002
   903.250,    -1.871465,    -1.582394
   903.300,    -2.368198,    -1.927697
   903.350,    -2.952353,    -2.463880
   903.400,    -3.479690,    -3.029406
   903.450,    -3.825867,    -3.523483
   903.500,    -3.913864,    -3.789007
   903.550,    -3.730987,    -3.747427
   903.600,    -3.308007,    -3.445402
   903.650,    -2.694267,    -3.007922
   903.700,    -1.888915,    -2.287399
   903.750,    -0.911922,    -1.321172
   903.800,     0.091525,    -0.153564
   903.850,     0.822803,     0.930951
   903.900,     0.967245,     1.449751
   903.950,     0.446206,     1.102206
   904.000,    -0.518526,     0.088598
   904.050,    -1.584670,    -1.120366
   904.100,    -2.482122,    -2.216287
   904.150,    -3.121103,    -2.989702
   904.200,    -3.496407,    -3.420695
   904.250,    -3.633197,    -3.707491
   904.300,    -3.573881,    -3.711311
   904.350,    -3.404691,    -3.603153
   904.400,    -3.196319,    -3.449201
   904.450,    -2.993574,    -3.189370
   904.500,    -2.841970,    -2.881167
   904.550,    -2.792304,    -2.687788
   904.600,    -2.876074,    -2.672215
   904.650,    -3.054956,    -2.783456
   904.700,    -3.242332,    -2.957260
   904.750,    -3.380722,    -3.140558
   904.800,    -3.443073,    -3.222665
   904.850,    -3.387977,    -3.182385
   904.900,    -3.171802,    -3.030910
   904.950,    -2.816272,    -2.690233
   905.000,    -2.369360,    -2.168023
   905.050,    -1.897620,    -1.590046
   905.100,    -1.506871,    -1.107618
   905.150,    -1.342803,    -0.783490
   905.200,    -1.501736,    -1.014849
   905.250,    -1.973749,    -1.596241
   905.300,    -2.615341,    -2.389114
   905.350,    -3.254031,    -3.269572
   905.400,    -3.768050,    -3.983498
   905.450,    -4.104773,    -4.464258
   905.500,    -4.249718,    -4.625969
   905.550,    -4.231761,    -4.595434
   905.600,    -4.091662,    -4.349931
   905.650,    -3.818772,    -3.959869
   905.700,    -3.391780,    -3.484730
   905.750,    -2.852691,    -2.700705
   905.800,    -2.343981,    -1.958757
   905.850,    -2.029584,    -1.398001
   905.900,    -1.999650,    -1.272020
   905.950,    -2.179586,    -1.505451
   906.000,    -2.412693,    -1.973379
   906.050,    -2.591656,    -2.467060
   906.100,    -2.716361,    -2.912681
   906.150,    -2.795650,    -3.234173
   906.200,    -2.783531,    -3.397286
   906.250,    -2.645479,    -3.263197
   906.300,    -2.440328,    -2.973403
   906.350,    -2.289433,    -2.612979
   906.400,    -2.238296,    -2.389799
   906.450,    -2.198918,    -2.180948
   906.500,    -2.044729,    -1.850640
   906.550,    -1.761367,    -1.416998
   906.600,    -1.495867,    -0.883015
   906.650,    -1.456748,    -0.755815
   906.700,    -1.752816,    -1.129473
   906.750,    -2.276253,    -1.850959
   906.800,    -2.760178,    -2.593991
   906.850,    -2.988171,    -3.023319
   906.900,    -2.958086,    -2.988912
   906.950,    -2.849981,    -2.864285
   907.000,    -2.839839,    -2.773753
   907.050,    -2.978466,    -2.880167
   907.100,    -3.211601,    -3.054951
   907.150,    -3.475196,    -3.374560
   907.200,    -3.711110,    -3.695751
   907.250,    -3.865448,    -4.054871
   907.300,    -3.846859,    -4.146156
   907.350,    -3.611936,    -3.946337
   907.400,    -3.223258,    -3.551931
   907.450,    -2.818974,    -2.926870
   907.500,    -2.456511,    -2.444126
   907.550,    -2.082819,    -1.955367
   907.600,    -1.649664,    -1.344092
   907.650,    -1.232632,    -0.750915
   907.700,    -1.021537,    -0.420803
   907.750,    -1.156380,    -0.561526
   907.800,    -1.601012,    -1.265100
   907.850,    -2.155523,    -2.218704
   907.900,    -2.616027,    -3.076697
   907.950,    -2.874363,    -3.652045
   908.000,    -2.912145,    -3.918555
   908.050,    -2.720340,    -3.767455
   908.100,    -2.274642,    -3.197848
   908.150,    -1.584081,    -2.159968
   908.200,    -0.816801,    -1.015296
   908.250,    -0.228384,     0.001437
   908.300,     0.027167,     0.493492
   908.350,     0.019479,     0.563301
   908.400,    -0.075855,     0.472450
   908.450,    -0.165370,     0.258740
   908.500,    -0.280634,     0.020400
   908.550,    -0.435202,    -0.253801
   908.600,    -0.514177,    -0.525972
   908.650,    -0.379961,    -0.542769
   908.700,    -0.024451,    -0.157357
   908.750,     0.374683,     0.439349
   908.800,     0.611497,     0.899253
   908.850,     0.577975,     0.943642
   908.900,     0.266991,     0.527482
   908.950,    -0.243478,    -0.103703
   909.000,    -0.804528,    -1.047067
   909.050,    -1.226825,    -1.737296
   909.100,    -1.318492,    -2.089759
   909.150,    -0.978156,    -1.742754
   909.200,    -0.247656,    -0.845753
   909.250,     0.680855,     0.440168
   909.300,     1.549809,     1.723849
   909.350,     2.159227,     2.723554
   909.400,     2.450645,     3.272969
   909.450,     2.492739,     3.479445
   909.500,     2.379783,     3.286940
   909.550,     2.084417,     2.858229
   909.600,     1.452173,     1.970075
   909.650,     0.443204,     0.522553
   909.700,    -0.711982,    -1.183046
   909.750,    -1.591299,    -2.634909
   909.800,    -1.814419,    -3.125634
   909.850,    -1.305400,    -2.585630
   909.900,    -0.316271,    -1.217899
